Mass	Ion Current
1.0	6.883333486529253e-11
1.03125	7.126639556265246e-11
1.0625	7.677471158817895e-11
1.09375	8.695857228735449e-11
1.125	1.0273663170190517e-10
1.15625	1.2386873471381676e-10
1.1875	1.4897272304637e-10
1.21875	1.7585585765367284e-10
1.25	2.0172191694811659e-10
1.28125	2.2290132239977112e-10
1.3125	2.3462970455412346e-10
1.34375	2.326597525748042e-10
1.375	2.1722701415427537e-10
1.40625	1.9619562918737898e-10
1.4375	1.8376679344900282e-10
1.46875	1.9582915844473803e-10
1.5	2.464863313456078e-10
1.53125	3.478299592796219e-10
1.5625	5.119654145069319e-10
1.59375	7.547823477338511e-10
1.625	1.0989872345490426e-09
1.65625	1.568931096151971e-09
1.6875	2.17565720994628e-09
1.71875	2.907448948263891e-09
1.75	3.738642284645266e-09
1.78125	4.644785889240666e-09
1.8125	5.608697506431781e-09
1.84375	6.62615029511926e-09
1.875	7.725307504813372e-09
1.90625	8.971844600580425e-09
1.9375	1.040405184227211e-08
1.96875	1.1941871491671918e-08
2.0	1.3415188959697844e-08
2.03125	1.4691715399806071e-08
2.0625	1.572166574703715e-08
2.09375	1.64873856789427e-08
2.125	1.6967103277920614e-08
2.15625	1.7130036056300924e-08
2.1875	1.696975004961132e-08
2.21875	1.657067194571482e-08
2.25	1.6084243270597653e-08
2.28125	1.55518691258294e-08
2.3125	1.4765130451621644e-08
2.34375	1.3358582684475095e-08
2.375	1.1082589956856737e-08
2.40625	8.093287817700912e-09
2.4375	5.01855712542465e-09
2.46875	2.5842490369853977e-09
2.5	1.1049833270604381e-09
2.53125	4.049885982126966e-10
2.5625	1.3736350945592335e-10
2.59375	4.8812232034123326e-11
2.625	2.0586508192588227e-11
2.65625	1.0847366407884529e-11
2.6875	7.023348048973421e-12
2.71875	5.383580300305502e-12
2.75	4.678521025452964e-12
2.78125	4.428127135802651e-12
2.8125	4.440902073160613e-12
2.84375	4.634840688327868e-12
2.875	4.9438638946575075e-12
2.90625	5.286370299839582e-12
2.9375	5.593589393754206e-12
2.96875	5.844434311508273e-12
3.0	6.048332841512849e-12
3.03125	6.204302696599662e-12
3.0625	6.307778518260809e-12
3.09375	6.374005490084045e-12
3.125	6.403409486682721e-12
3.15625	6.3565953715982726e-12
3.1875	6.214511544255785e-12
3.21875	6.019433215764813e-12
3.25	5.822313117742617e-12
3.28125	5.622344170091997e-12
3.3125	5.3639237149183394e-12
3.34375	4.970000539589181e-12
3.375	4.379318088720829e-12
3.40625	3.5813749969110242e-12
3.4375	2.6662112188186038e-12
3.46875	1.82755113126154e-12
3.5	1.2379823728647654e-12
3.53125	9.236036414839166e-13
3.5625	7.918665723138929e-13
3.59375	7.393304176338267e-13
3.625	7.117439233469969e-13
3.65625	7.015592533993198e-13
3.6875	7.184198982240764e-13
3.71875	7.582744653532314e-13
3.75	7.996690332481848e-13
3.78125	8.290685304078449e-13
3.8125	8.541759964272866e-13
3.84375	8.864008160282266e-13
3.875	9.183756186081915e-13
3.90625	9.310631692710514e-13
3.9375	9.209807395882397e-13
3.96875	9.044965297577701e-13
4.0	8.978972621843939e-13
4.03125	9.016169429977572e-13
4.0625	9.042879834698925e-13
4.09375	8.977238440469049e-13
4.125	8.830794168829259e-13
4.15625	8.707238489252811e-13
4.1875	8.750789264218295e-13
4.21875	9.004016065725096e-13
4.25	9.3014430792987e-13
4.28125	9.340188128134641e-13
4.3125	8.930133108681071e-13
4.34375	8.180552589498458e-13
4.375	7.401000385459655e-13
4.40625	6.826530985458434e-13
4.4375	6.441043987233386e-13
4.46875	6.084899294503399e-13
4.5	5.712946934098573e-13
4.53125	5.435725654312495e-13
4.5625	5.324738588420586e-13
4.59375	5.324357491356957e-13
4.625	5.332315535303001e-13
4.65625	5.264901470521111e-13
4.6875	5.105034233884864e-13
4.71875	4.950202574238727e-13
4.75	4.928186764924236e-13
4.78125	5.037112220385165e-13
4.8125	5.1885709270727e-13
4.84375	5.383686118437536e-13
4.875	5.644488782624579e-13
4.90625	5.831139607628821e-13
4.9375	5.801137565111802e-13
4.96875	5.656134740260332e-13
5.0	5.563135130511043e-13
5.03125	5.486205023261248e-13
5.0625	5.323304731047473e-13
5.09375	5.118817154002586e-13
5.125	4.959234520436617e-13
5.15625	4.847829494607214e-13
5.1875	4.777558557100825e-13
5.21875	4.759838356793722e-13
5.25	4.745948100660924e-13
5.28125	4.675480922561315e-13
5.3125	4.631468277470352e-13
5.34375	4.754815248128597e-13
5.375	4.990686683359336e-13
5.40625	5.165231849006691e-13
5.4375	5.249599583159736e-13
5.46875	5.313151719803233e-13
5.5	5.350271007481533e-13
5.53125	5.336930441850185e-13
5.5625	5.341761104629694e-13
5.59375	5.438824304121459e-13
5.625	5.594208364774478e-13
5.65625	5.706789749961028e-13
5.6875	5.684747919794397e-13
5.71875	5.525210822719673e-13
5.75	5.365443874784381e-13
5.78125	5.358874693821292e-13
5.8125	5.490325533617779e-13
5.84375	5.592515925183228e-13
5.875	5.580234625074398e-13
5.90625	5.589848787838914e-13
5.9375	5.766520616047599e-13
5.96875	6.014461931963533e-13
6.0	6.145364707561829e-13
6.03125	6.145263334658702e-13
6.0625	6.089076183372899e-13
6.09375	5.946836447758008e-13
6.125	5.668834000306655e-13
6.15625	5.330304882374126e-13
6.1875	5.076518632546323e-13
6.21875	5.019193611080497e-13
6.25	5.176710839507881e-13
6.28125	5.411527346024791e-13
6.3125	5.516350180465035e-13
6.34375	5.444989619775298e-13
6.375	5.331193928155564e-13
6.40625	5.275581946122265e-13
6.4375	5.253916334109487e-13
6.46875	5.225277133723283e-13
6.5	5.193494289137957e-13
6.53125	5.132421180761848e-13
6.5625	4.982047218347885e-13
6.59375	4.748687337449709e-13
6.625	4.5067237702117735e-13
6.65625	4.342608900514272e-13
6.6875	4.34137562054307e-13
6.71875	4.499013466462143e-13
6.75	4.65087007534698e-13
6.78125	4.641962270297839e-13
6.8125	4.544882536722944e-13
6.84375	4.556356377263815e-13
6.875	4.711301336036977e-13
6.90625	4.894193232109212e-13
6.9375	5.077415267742968e-13
6.96875	5.288894864598215e-13
7.0	5.414311577203734e-13
7.03125	5.321300583331634e-13
7.0625	5.109956511747948e-13
7.09375	4.982349710754008e-13
7.125	4.977393822623577e-13
7.15625	5.005824314091578e-13
7.1875	4.983139552036664e-13
7.21875	4.850743830046855e-13
7.25	4.624249117304857e-13
7.28125	4.4249147531857935e-13
7.3125	4.335257467683734e-13
7.34375	4.278084505572599e-13
7.375	4.174377315167843e-13
7.40625	4.12897960180153e-13
7.4375	4.2827677168566503e-13
7.46875	4.556561291474415e-13
7.5	4.754255257706508e-13
7.53125	4.840048717716372e-13
7.5625	4.901730605612331e-13
7.59375	4.951067225471284e-13
7.625	4.919528868475853e-13
7.65625	4.776943272367939e-13
7.6875	4.577773706979094e-13
7.71875	4.410827172257603e-13
7.75	4.329714755127445e-13
7.78125	4.3165801879088694e-13
7.8125	4.316891624982916e-13
7.84375	4.3151403674238087e-13
7.875	4.3300172475335685e-13
7.90625	4.348731932283384e-13
7.9375	4.323512847650285e-13
7.96875	4.2452873898549126e-13
8.0	4.1996823228231117e-13
8.03125	4.283383272640079e-13
8.0625	4.455822375567381e-13
8.09375	4.603275226278125e-13
8.125	4.731689757890567e-13
8.15625	4.899332350406793e-13
8.1875	5.032848595341866e-13
8.21875	5.045366793625383e-13
8.25	5.013965046103686e-13
8.28125	5.02093755027494e-13
8.3125	4.990142413868748e-13
8.34375	4.845757042154508e-13
8.375	4.647528022150293e-13
8.40625	4.486869588978676e-13
8.4375	4.412179714467779e-13
8.46875	4.4339561861526933e-13
8.5	4.470347161021626e-13
8.53125	4.388801334073017e-13
8.5625	4.2144201540042503e-13
8.59375	4.154003801094125e-13
8.625	4.3010777231455855e-13
8.65625	4.4820158869030013e-13
8.6875	4.531381238119525e-13
8.71875	4.52684358097713e-13
8.75	4.608706537061191e-13
8.78125	4.755969923442294e-13
8.8125	4.843169593669872e-13
8.84375	4.792392611224772e-13
8.875	4.632181682499847e-13
8.90625	4.4818375356456275e-13
8.9375	4.44162447706814e-13
8.96875	4.4756692384358143e-13
9.0	4.5269341118585327e-13
9.03125	4.667724540219353e-13
9.0625	4.922053975335572e-13
9.09375	5.09406373420257e-13
9.125	5.019718907033066e-13
9.15625	4.826318923505102e-13
9.1875	4.724956320298346e-13
9.21875	4.70520215671566e-13
9.25	4.628593515410007e-13
9.28125	4.4812347192377255e-13
9.3125	4.365386361854934e-13
9.34375	4.350426811329522e-13
9.375	4.4328088292036605e-13
9.40625	4.55552750470295e-13
9.4375	4.633431767604723e-13
9.46875	4.624792844694359e-13
9.5	4.582589733029274e-13
9.53125	4.590998262977986e-13
9.5625	4.649752805008234e-13
9.59375	4.702635850173387e-13
9.625	4.762457247141361e-13
9.65625	4.856342107964484e-13
9.6875	4.900858364964567e-13
9.71875	4.810582813173647e-13
9.75	4.665093181546731e-13
9.78125	4.614955878383398e-13
9.8125	4.694252256874643e-13
9.84375	4.825989868145752e-13
9.875	4.940222493240998e-13
9.90625	5.030038343310783e-13
9.9375	5.09928958867395e-13
9.96875	5.105669034256854e-13
10.0	5.037179983020945e-13
10.03125	4.948903157935003e-13
10.0625	4.839394401705277e-13
10.09375	4.657378540988411e-13
10.125	4.456708981893931e-13
10.15625	4.351692888416442e-13
10.1875	4.3574733122990483e-13
10.21875	4.423355399411216e-13
10.25	4.503578499709393e-13
10.28125	4.5271371287153306e-13
10.3125	4.4589901432648404e-13
10.34375	4.389544554662256e-13
10.375	4.4388266933620413e-13
10.40625	4.598570330950624e-13
10.4375	4.729714341532298e-13
10.46875	4.726904089501216e-13
10.5	4.645033815052491e-13
10.53125	4.605581866400088e-13
10.5625	4.634537111719572e-13
10.59375	4.661003570952116e-13
10.625	4.626424568963949e-13
10.65625	4.5447939031953433e-13
10.6875	4.490970583696102e-13
10.71875	4.543380103562422e-13
10.75	4.711793021722199e-13
10.78125	4.936304728690721e-13
10.8125	5.127883794669996e-13
10.84375	5.189102186137218e-13
10.875	5.078446886110088e-13
10.90625	4.882241529460818e-13
10.9375	4.759669221254814e-13
10.96875	4.785223866460298e-13
11.0	4.888817757738029e-13
11.03125	4.963844548074026e-13
11.0625	4.959517497203636e-13
11.09375	4.889391300687274e-13
11.125	4.839182440180556e-13
11.15625	4.901696453243898e-13
11.1875	5.058701396144782e-13
11.21875	5.210679435672938e-13
11.25	5.330314640193679e-13
11.28125	5.516899870966485e-13
11.3125	5.873079258165992e-13
11.34375	6.37693619697649e-13
11.375	6.981773557727944e-13
11.40625	7.788701866622005e-13
11.4375	8.998263288997888e-13
11.46875	1.1045003887183436e-12
11.5	1.54394086491344e-12
11.53125	2.565582078381534e-12
11.5625	4.655862934771493e-12
11.59375	8.184144334455468e-12
11.625	1.3127133928481083e-11
11.65625	1.9036421744500487e-11
11.6875	2.5284581720019794e-11
11.71875	3.1392506649741136e-11
11.75	3.7197835089930464e-11
11.78125	4.2717367837452613e-11
11.8125	4.788261454002907e-11
11.84375	5.251349008417172e-11
11.875	5.6513703439176055e-11
11.90625	5.992617513328469e-11
11.9375	6.280030662164648e-11
11.96875	6.518303952152138e-11
12.0	6.71451089173658e-11
12.03125	6.85550088919129e-11
12.0625	6.897551974027749e-11
12.09375	6.807068797520799e-11
12.125	6.606053204460949e-11
12.15625	6.362531335124544e-11
12.1875	6.135993796396733e-11
12.21875	5.928679075450916e-11
12.25	5.684014023343842e-11
12.28125	5.3328407662034394e-11
12.3125	4.827658411921121e-11
12.34375	4.13186394820908e-11
12.375	3.2376431396974326e-11
12.40625	2.241368722566417e-11
12.4375	1.3447456689852366e-11
12.46875	7.185299230605402e-12
12.5	3.931472335183539e-12
12.53125	3.0365042077984405e-12
12.5625	3.91216356185331e-12
12.59375	6.3619109980095345e-12
12.625	1.0302592112765296e-11
12.65625	1.548485298319413e-11
12.6875	2.1450376197496013e-11
12.71875	2.7665127133591483e-11
12.75	3.370534060187502e-11
12.78125	3.936706516327604e-11
12.8125	4.461835068081399e-11
12.84375	4.942456860446143e-11
12.875	5.368002917172099e-11
12.90625	5.734825114789288e-11
12.9375	6.051393414141515e-11
12.96875	6.32388169607978e-11
13.0	6.546699987675098e-11
13.03125	6.70490191145845e-11
13.0625	6.779847516735771e-11
13.09375	6.754819620313768e-11
13.125	6.625534842985559e-11
13.15625	6.419458714601589e-11
13.1875	6.192593660081513e-11
13.21875	5.978272044071531e-11
13.25	5.7468738101640326e-11
13.28125	5.4351551037612467e-11
13.3125	4.9917400074539486e-11
13.34375	4.374527476369572e-11
13.375	3.5554587052288866e-11
13.40625	2.5898049330064232e-11
13.4375	1.6521277401704282e-11
13.46875	9.360176696227018e-12
13.5	5.181824587474626e-12
13.53125	3.4704958091352767e-12
13.5625	3.3406708389166484e-12
13.59375	4.205736019863293e-12
13.625	5.789462225597175e-12
13.65625	7.923423202271795e-12
13.6875	1.0444442186119396e-11
13.71875	1.3144298149914135e-11
13.75	1.5792834054395577e-11
13.78125	1.825973400260139e-11
13.8125	2.0513981138781112e-11
13.84375	2.249162661671633e-11
13.875	2.4104785875667112e-11
13.90625	2.535891115151845e-11
13.9375	2.6370664332753257e-11
13.96875	2.7287647835771978e-11
14.0	2.816000384264772e-11
14.03125	2.8866405793470662e-11
14.0625	2.920156824681719e-11
14.09375	2.902580606423122e-11
14.125	2.8370883767281363e-11
14.15625	2.7459142598607045e-11
14.1875	2.6547777864927014e-11
14.21875	2.5697492744836126e-11
14.25	2.472477257653427e-11
14.28125	2.3371379484493637e-11
14.3125	2.144063225573145e-11
14.34375	1.8773036944419452e-11
14.375	1.529394319521593e-11
14.40625	1.125638384585903e-11
14.4375	7.349192435168739e-12
14.46875	4.3609096368746325e-12
14.5	2.6924387198923316e-12
14.53125	2.3116380771376344e-12
14.5625	3.152627898322935e-12
14.59375	5.3699718283173326e-12
14.625	9.150401790447571e-12
14.65625	1.440153291759616e-11
14.6875	2.0697762947996523e-11
14.71875	2.7471774854959108e-11
14.75	3.424818068031854e-11
14.78125	4.077468918062266e-11
14.8125	4.6967343209081136e-11
14.84375	5.2755272372806417e-11
14.875	5.8026763949392546e-11
14.90625	6.267094482259594e-11
14.9375	6.65936888966101e-11
14.96875	6.975932331787504e-11
15.0	7.224660453220011e-11
15.03125	7.41301117712645e-11
15.0625	7.526487072473387e-11
15.09375	7.532666157494816e-11
15.125	7.413689107060861e-11
15.15625	7.19269296900471e-11
15.1875	6.930652579617558e-11
15.21875	6.683742448387875e-11
15.25	6.443939132294574e-11
15.28125	6.137615415902076e-11
15.3125	5.69286354168419e-11
15.34375	5.071721168037335e-11
15.375	4.244530768526822e-11
15.40625	3.2226457613582227e-11
15.4375	2.1425267809904724e-11
15.46875	1.23271393093205e-11
15.5	6.5358833796491655e-12
15.53125	4.102183870369203e-12
15.5625	4.27155272958446e-12
15.59375	6.549326619226248e-12
15.625	1.087378884850887e-11
15.65625	1.712528903408117e-11
15.6875	2.475219161579556e-11
15.71875	3.291661387905265e-11
15.75	4.095885436372626e-11
15.78125	4.8635775962146965e-11
15.8125	5.595005014846777e-11
15.84375	6.28695845383831e-11
15.875	6.920251871544991e-11
15.90625	7.470649099339255e-11
15.9375	7.930125306421232e-11
15.96875	8.308272125834293e-11
16.0	8.61535773277744e-11
16.03125	8.854227767640666e-11
16.0625	9.014265028861601e-11
16.09375	9.061133787735542e-11
16.125	8.954530172911035e-11
16.15625	8.696602465940728e-11
16.1875	8.355319214281565e-11
16.21875	8.017680269700733e-11
16.25	7.703616911047817e-11
16.28125	7.337237067917002e-11
16.3125	6.813989650300556e-11
16.34375	6.06967670568892e-11
16.375	5.0843818738544044e-11
16.40625	3.8929193202363876e-11
16.4375	2.636686008417044e-11
16.46875	1.546621337944476e-11
16.5	8.072418601623443e-12
16.53125	4.490960988506876e-12
16.5625	3.908571383215431e-12
16.59375	5.410746503620167e-12
16.625	8.374415744194508e-12
16.65625	1.2353948593279984e-11
16.6875	1.6984968986832882e-11
16.71875	2.1935599170408437e-11
16.75	2.686314885813612e-11
16.78125	3.1513677084538116e-11
16.8125	3.582231386523027e-11
16.84375	3.9772962701078995e-11
16.875	4.3262646937103355e-11
16.90625	4.622497870587772e-11
16.9375	4.874109796326742e-11
16.96875	5.090825330733573e-11
17.0	5.269315886402559e-11
17.03125	5.393304899903306e-11
17.0625	5.437009523157066e-11
17.09375	5.375843867283514e-11
17.125	5.214640871886722e-11
17.15625	5.005773573429906e-11
17.1875	4.81311240863036e-11
17.21875	4.644601023229278e-11
17.25	4.4434230600520763e-11
17.28125	4.1502218328659524e-11
17.3125	3.741409612678659e-11
17.34375	3.207383664216579e-11
17.375	2.5458512034615133e-11
17.40625	1.8131952536637463e-11
17.4375	1.1490792692359086e-11
17.46875	7.018831696403716e-12
17.5	5.518057365205831e-12
17.53125	7.41327832454175e-12
17.5625	1.3420859042156952e-11
17.59375	2.4397654035945848e-11
17.625	4.054891838967123e-11
17.65625	6.094551946445037e-11
17.6875	8.384839350616957e-11
17.71875	1.076197464477957e-10
17.75	1.3134478227261326e-10
17.78125	1.5453853474678425e-10
17.8125	1.7657296458306604e-10
17.84375	1.967158103077793e-10
17.875	2.146239436173758e-10
17.90625	2.3041829555481286e-10
17.9375	2.4409832488636596e-10
17.96875	2.552126010524347e-10
18.0	2.6324104007713345e-10
18.03125	2.678645638631849e-10
18.0625	2.6872115643783445e-10
18.09375	2.6538246600260607e-10
18.125	2.5807136982969325e-10
18.15625	2.48385811918439e-10
18.1875	2.3859086928368356e-10
18.21875	2.2946076982943708e-10
18.25	2.191404419038534e-10
18.28125	2.047269437310817e-10
18.3125	1.8431219050984993e-10
18.34375	1.5706351497168924e-10
18.375	1.231939689150252e-10
18.40625	8.577812765642179e-11
18.4375	5.133052316530495e-11
18.46875	2.611245941697149e-11
18.5	1.1807358042681404e-11
18.53125	5.655031130868959e-12
18.5625	3.841498733697657e-12
18.59375	3.856102936961037e-12
18.625	4.620243857639261e-12
18.65625	5.757899799313515e-12
18.6875	7.091158389649355e-12
18.71875	8.516185152906974e-12
18.75	9.997344098400252e-12
18.78125	1.1510043786133739e-11
18.8125	1.3009459828849934e-11
18.84375	1.4468285076951748e-11
18.875	1.5897685945454043e-11
18.90625	1.732871138249159e-11
18.9375	1.876280554535814e-11
18.96875	2.011000914403649e-11
19.0	2.1240257816468322e-11
19.03125	2.215345615286246e-11
19.0625	2.302928334141363e-11
19.09375	2.4073860960260873e-11
19.125	2.5393869299006333e-11
19.15625	2.7037844185784365e-11
19.1875	2.906868148966346e-11
19.21875	3.155623332085078e-11
19.25	3.457514829996455e-11
19.28125	3.82607764914944e-11
19.3125	4.2826839297127606e-11
19.34375	4.856487434423684e-11
19.375	5.60776217128911e-11
19.40625	6.715156902759034e-11
19.4375	8.768518550139603e-11
19.46875	1.3604876947237443e-10
19.5	2.576654722918903e-10
19.53125	5.3303711444741e-10
19.5625	1.056957299461203e-09
19.59375	1.8916541666413877e-09
19.625	3.034177353811174e-09
19.65625	4.42956604729261e-09
19.6875	6.018918252692629e-09
19.71875	7.773101273755856e-09
19.75	9.654065991071548e-09
19.78125	1.1541598787800922e-08
19.8125	1.3263191434020882e-08
19.84375	1.4718480656483734e-08
19.875	1.591984677418168e-08
19.90625	1.6920241208140396e-08
19.9375	1.7753647441054454e-08
19.96875	1.8424943348804845e-08
20.0	1.8908604459966227e-08
20.03125	1.915111091932431e-08
20.0625	1.909424263146775e-08
20.09375	1.872232502364568e-08
20.125	1.8116706357318435e-08
20.15625	1.7447332467668275e-08
20.1875	1.683540240549064e-08
20.21875	1.620784750855364e-08
20.25	1.535238958183527e-08
20.28125	1.4099181377957848e-08
20.3125	1.2365394042035405e-08
20.34375	1.0097262581609812e-08
20.375	7.376021571303681e-09
20.40625	4.605487546882614e-09
20.4375	2.3679347371796666e-09
20.46875	9.84245795976335e-10
20.5	3.344804433424997e-10
20.53125	9.905756076511452e-11
20.5625	2.975035842678331e-11
20.59375	1.1045241110618775e-11
20.625	5.345548656499055e-12
20.65625	3.0659192632592758e-12
20.6875	1.9525299346095926e-12
20.71875	1.3699631706831639e-12
20.75	1.0609642504821881e-12
20.78125	8.901240747087591e-13
20.8125	7.801553999174649e-13
20.84375	6.946303883655081e-13
20.875	6.293462387514659e-13
20.90625	5.912763768184393e-13
20.9375	5.741401278014369e-13
20.96875	5.595745763455062e-13
21.0	5.384369165806202e-13
21.03125	5.173057620287691e-13
21.0625	5.033176024397956e-13
21.09375	4.949264739359527e-13
21.125	4.885365658020835e-13
21.15625	4.829243016764295e-13
21.1875	4.779191365572588e-13
21.21875	4.758214221939339e-13
21.25	4.790098439427792e-13
21.28125	4.826151414269453e-13
21.3125	4.797981131322848e-13
21.34375	4.753335312163154e-13
21.375	4.791442308020588e-13
21.40625	4.884945529678997e-13
21.4375	4.923098604128762e-13
21.46875	4.893281418082152e-13
21.5	4.889738787483555e-13
21.53125	4.9439028175155e-13
21.5625	4.950523498081782e-13
21.59375	4.843948050829716e-13
21.625	4.737451750336241e-13
21.65625	4.750548912579866e-13
21.6875	4.812150027413975e-13
21.71875	4.771667544596625e-13
21.75	4.614714101298933e-13
21.78125	4.4716368195057976e-13
21.8125	4.481142019951978e-13
21.84375	4.66910147697841e-13
21.875	4.909150343179736e-13
21.90625	5.06052827680542e-13
