Mass	Ion Current
1.0	3.7559073906567875e-11
1.03125	3.725057068360016e-11
1.0625	3.7317569173689336e-11
1.09375	3.795374778348126e-11
1.125	3.920393523704213e-11
1.15625	4.097030353866771e-11
1.1875	4.3030447260949956e-11
1.21875	4.502144490547977e-11
1.25	4.648750134839119e-11
1.28125	4.688820165466012e-11
1.3125	4.56119066127858e-11
1.34375	4.226464664358609e-11
1.375	3.7101176297849037e-11
1.40625	3.10720685292587e-11
1.4375	2.532993953474616e-11
1.46875	2.0643188547442293e-11
1.5	1.7189119919103213e-11
1.53125	1.475483450696924e-11
1.5625	1.3032923698585996e-11
1.59375	1.1789057577371587e-11
1.625	1.0921416548903551e-11
1.65625	1.0417233915760438e-11
1.6875	1.0251515782100373e-11
1.71875	1.0380986001368164e-11
1.75	1.0785199122675948e-11
1.78125	1.1441428533764952e-11
1.8125	1.2317077913159835e-11
1.84375	1.3395849533803794e-11
1.875	1.4645798462886717e-11
1.90625	1.6009520098503316e-11
1.9375	1.7482756561881807e-11
1.96875	1.9105933848906353e-11
2.0	2.0836632766418894e-11
2.03125	2.2522820414261346e-11
2.0625	2.3981578875509335e-11
2.09375	2.504944342229809e-11
2.125	2.5639084605399987e-11
2.15625	2.5764109595760587e-11
2.1875	2.5480327917049017e-11
2.21875	2.4888322305849364e-11
2.25	2.4153819569439072e-11
2.28125	2.3325135226071048e-11
2.3125	2.2111767278287786e-11
2.34375	2.000673238189421e-11
2.375	1.6706904956698132e-11
2.40625	1.2472047700162747e-11
2.4375	8.143860585896334e-12
2.46875	4.6778145593173726e-12
2.5	2.519639878684199e-12
2.53125	1.4750351547826446e-12
2.5625	1.0809144378176594e-12
2.59375	9.534417526324557e-13
2.625	8.895098741780461e-13
2.65625	8.277548568455528e-13
2.6875	7.726154243291317e-13
2.71875	7.355098518083136e-13
2.75	7.151725500871564e-13
2.78125	7.001496821548714e-13
2.8125	6.780804216732772e-13
2.84375	6.496079173710922e-13
2.875	6.298935440081366e-13
2.90625	6.290997995976599e-13
2.9375	6.390712611881177e-13
2.96875	6.47562624182807e-13
3.0	6.538546830706093e-13
3.03125	6.589014273430949e-13
3.0625	6.553471957812529e-13
3.09375	6.386483681307398e-13
3.125	6.177011484774508e-13
3.15625	6.073286405033906e-13
3.1875	6.10777921294936e-13
3.21875	6.146448909734314e-13
3.25	6.081170723232221e-13
3.28125	5.97904701010038e-13
3.3125	5.94156993570516e-13
3.34375	5.960897465732973e-13
3.375	6.01011807595947e-13
3.40625	6.117561969151697e-13
3.4375	6.268371238737913e-13
3.46875	6.372817312923218e-13
3.5	6.389547636646842e-13
3.53125	6.349483113766985e-13
3.5625	6.262550699374925e-13
3.59375	6.148603761552129e-13
3.625	6.083412311223835e-13
3.65625	6.06954753384209e-13
3.6875	5.985277919985654e-13
3.71875	5.786331158143254e-13
3.75	5.627444040270935e-13
3.78125	5.673812114581622e-13
3.8125	5.88413866242643e-13
3.84375	6.06803832441799e-13
3.875	6.088797001313484e-13
3.90625	5.971145886768392e-13
3.9375	5.861498352660588e-13
3.96875	5.853395567724518e-13
4.0	5.888777421421409e-13
4.03125	5.906060146151915e-13
4.0625	5.976886737271703e-13
4.09375	6.179551770464642e-13
4.125	6.41991342899273e-13
4.15625	6.545280810399401e-13
4.1875	6.540462615944875e-13
4.21875	6.444122579302158e-13
4.25	6.238322033426391e-13
4.28125	5.93766138687335e-13
4.3125	5.626060056197757e-13
4.34375	5.347055805939027e-13
4.375	5.10677925728148e-13
4.40625	4.978470977481941e-13
4.4375	5.013918967511355e-13
4.46875	5.119136993643469e-13
4.5	5.177494175577502e-13
4.53125	5.179415923928232e-13
4.5625	5.157363793840963e-13
4.59375	5.126377837852414e-13
4.625	5.122461699605396e-13
4.65625	5.182768277045557e-13
4.6875	5.263039353289867e-13
4.71875	5.293299978025023e-13
4.75	5.334194457667918e-13
4.78125	5.516751877369941e-13
4.8125	5.785880672140586e-13
4.84375	5.890037264345838e-13
4.875	5.71714442280935e-13
4.90625	5.460206939367218e-13
4.9375	5.336862137113318e-13
4.96875	5.308426224634455e-13
5.0	5.200431556738605e-13
5.03125	4.978860206061864e-13
5.0625	4.767326399097993e-13
5.09375	4.672439193366407e-13
5.125	4.679211120135751e-13
5.15625	4.677146257098252e-13
5.1875	4.581773328793393e-13
5.21875	4.4318490392304677e-13
5.25	4.3646152230597535e-13
5.28125	4.4967816362900814e-13
5.3125	4.800327886925193e-13
5.34375	5.118614950297418e-13
5.375	5.304246625259523e-13
5.40625	5.295024943681448e-13
5.4375	5.127029443358078e-13
5.46875	4.961337872651239e-13
5.5	5.008003018357188e-13
5.53125	5.292535073392335e-13
5.5625	5.569945546457511e-13
5.59375	5.585037640698509e-13
5.625	5.327539624733202e-13
5.65625	4.972020516656739e-13
5.6875	4.6966852065497e-13
5.71875	4.577378515287223e-13
5.75	4.536414917755832e-13
5.78125	4.430659127346165e-13
5.8125	4.289812591522918e-13
5.84375	4.340529942848531e-13
5.875	4.662935619223485e-13
5.90625	5.001927149382579e-13
5.9375	5.113924149598159e-13
5.96875	5.095466691813766e-13
6.0	5.143120087799935e-13
6.03125	5.212287307494734e-13
6.0625	5.144057380578049e-13
6.09375	4.955909272373604e-13
6.125	4.787828120078608e-13
6.15625	4.696539923458587e-13
6.1875	4.661860632769466e-13
6.21875	4.637094202543379e-13
6.25	4.5401673414748045e-13
6.28125	4.3816179525792143e-13
6.3125	4.328878835252459e-13
6.34375	4.452593350447176e-13
6.375	4.556965156783666e-13
6.40625	4.4641262800064474e-13
6.4375	4.3133178235718606e-13
6.46875	4.3583826868712205e-13
6.5	4.601506892534801e-13
6.53125	4.831627719442677e-13
6.5625	4.911261826910651e-13
6.59375	4.869911982355313e-13
6.625	4.802993397966249e-13
6.65625	4.779216302222555e-13
6.6875	4.790885028103931e-13
6.71875	4.765781411002201e-13
6.75	4.687668981283311e-13
6.78125	4.633452909547087e-13
6.8125	4.627038769494662e-13
6.84375	4.619529585248028e-13
6.875	4.633293531827731e-13
6.90625	4.74166495997852e-13
6.9375	4.93400079907419e-13
6.96875	5.139905970459602e-13
7.0	5.320847386823535e-13
7.03125	5.421163192832756e-13
7.0625	5.354110167374304e-13
7.09375	5.146720723214759e-13
7.125	4.934484895344204e-13
7.15625	4.775433520842753e-13
7.1875	4.625990888094955e-13
7.21875	4.4586312723457477e-13
7.25	4.2915622227787664e-13
7.28125	4.154821831633265e-13
7.3125	4.0877295038460604e-13
7.34375	4.1353739551643065e-13
7.375	4.301776220395209e-13
7.40625	4.505438177485749e-13
7.4375	4.642427393029835e-13
7.46875	4.697248991679392e-13
7.5	4.713233384308346e-13
7.53125	4.710006256541943e-13
7.5625	4.719096749657148e-13
7.59375	4.791455318446658e-13
7.625	4.885221459131894e-13
7.65625	4.872485336211707e-13
7.6875	4.703836604079414e-13
7.71875	4.4608536157488e-13
7.75	4.2572350267451597e-13
7.78125	4.1612332611802583e-13
7.8125	4.179064863260584e-13
7.84375	4.246130628094563e-13
7.875	4.256759604092525e-13
7.90625	4.205656276793507e-13
7.9375	4.2549972334611497e-13
7.96875	4.5023219093914824e-13
8.0	4.780947773092015e-13
8.03125	4.885153154395028e-13
8.0625	4.846531704606749e-13
8.09375	4.794100771747523e-13
8.125	4.721545420263706e-13
8.15625	4.579744786528672e-13
8.1875	4.442666937456985e-13
8.21875	4.420666035922366e-13
8.25	4.50796003173895e-13
8.28125	4.59534049267879e-13
8.3125	4.565413802212759e-13
8.34375	4.397912427029499e-13
8.375	4.2238803600602726e-13
8.40625	4.1804033108425176e-13
8.4375	4.2329532348901744e-13
8.46875	4.243635878895674e-13
8.5	4.1661148814618743e-13
8.53125	4.1086228928614854e-13
8.5625	4.1894027309752335e-13
8.59375	4.354502327295895e-13
8.625	4.4593341064040615e-13
8.65625	4.4958166963565693e-13
8.6875	4.540186586063366e-13
8.71875	4.561158308685753e-13
8.75	4.501684398514061e-13
8.78125	4.451088477831766e-13
8.8125	4.522812788350372e-13
8.84375	4.631751254237371e-13
8.875	4.596430115862138e-13
8.90625	4.417244564916545e-13
8.9375	4.252807687173815e-13
8.96875	4.1861934925446764e-13
9.0	4.1764169705048315e-13
9.03125	4.1421271794461756e-13
9.0625	4.0193532096360896e-13
9.09375	3.8256810913628314e-13
9.125	3.688805717046856e-13
9.15625	3.747675997659017e-13
9.1875	3.9979770796033653e-13
9.21875	4.311369512267904e-13
9.25	4.578111978056909e-13
9.28125	4.728890347881209e-13
9.3125	4.71937484751439e-13
9.34375	4.596690324383534e-13
9.375	4.496247395669589e-13
9.40625	4.4961365359974526e-13
9.4375	4.533589215843792e-13
9.46875	4.5143741717913743e-13
9.5	4.4119851001778176e-13
9.53125	4.231384394346588e-13
9.5625	4.007983181453234e-13
9.59375	3.830242329902478e-13
9.625	3.7319959947899883e-13
9.65625	3.631988644298839e-13
9.6875	3.5043135385680324e-13
9.71875	3.487896549272257e-13
9.75	3.6812236202041215e-13
9.78125	3.9624992740142084e-13
9.8125	4.172881116169813e-13
9.84375	4.312442872418665e-13
9.875	4.4088918713797165e-13
9.90625	4.4052568125459157e-13
9.9375	4.294068898201553e-13
9.96875	4.164357118689732e-13
10.0	4.0730426301670286e-13
10.03125	4.020854829644982e-13
10.0625	4.025707718569027e-13
10.09375	4.11388994701542e-13
10.125	4.2694851560415303e-13
10.15625	4.441302469022912e-13
10.1875	4.584245851847746e-13
10.21875	4.674514356324544e-13
10.25	4.708687324599115e-13
10.28125	4.709359529946056e-13
10.3125	4.686076830393016e-13
10.34375	4.596403010807826e-13
10.375	4.418439626761167e-13
10.40625	4.2171959826163563e-13
10.4375	4.070028819178062e-13
10.46875	3.988383245629584e-13
10.5	3.928398676234651e-13
10.53125	3.83055945903793e-13
10.5625	3.684965201901369e-13
10.59375	3.5684926151177687e-13
10.625	3.579627913530281e-13
10.65625	3.7379593777892017e-13
10.6875	3.943558804161973e-13
10.71875	4.0758314692052044e-13
10.75	4.135537940742895e-13
10.78125	4.1864100619286304e-13
10.8125	4.209236312367054e-13
10.84375	4.1552517177946557e-13
10.875	4.0875888286141804e-13
10.90625	4.138673724476266e-13
10.9375	4.3165894036273356e-13
10.96875	4.449273252344482e-13
11.0	4.4089943284850164e-13
11.03125	4.293097995156092e-13
11.0625	4.2566625679980874e-13
11.09375	4.287941258573208e-13
11.125	4.279846334102888e-13
11.15625	4.207867778174834e-13
11.1875	4.120464820039915e-13
11.21875	4.062556226754749e-13
11.25	4.074807169202749e-13
11.28125	4.140715006116513e-13
11.3125	4.161848545913144e-13
11.34375	4.1025909340748623e-13
11.375	4.0362071324073767e-13
11.40625	3.9999134646834245e-13
11.4375	3.975380951076052e-13
11.46875	4.020189129511076e-13
11.5	4.254792861351636e-13
11.53125	4.695672019619512e-13
11.5625	5.240790440508292e-13
11.59375	5.878313244153666e-13
11.625	6.768153745784211e-13
11.65625	8.025396211301661e-13
11.6875	9.549646230039288e-13
11.71875	1.1124857545591338e-12
11.75	1.2539123385446604e-12
11.78125	1.363052791296393e-12
11.8125	1.4426465664435506e-12
11.84375	1.513488553234188e-12
11.875	1.5893191710608656e-12
11.90625	1.672256408867534e-12
11.9375	1.760313249332679e-12
11.96875	1.840015769957737e-12
12.0	1.890728676054443e-12
12.03125	1.9002928570988065e-12
12.0625	1.87044281972637e-12
12.09375	1.8163428660428194e-12
12.125	1.7552310516491532e-12
12.15625	1.69307016323339e-12
12.1875	1.6329705599879563e-12
12.21875	1.5839843542711507e-12
12.25	1.5481509303694185e-12
12.28125	1.5104321873099513e-12
12.3125	1.4438233594815664e-12
12.34375	1.3194576724620544e-12
12.375	1.128595480959227e-12
12.40625	9.045168043383955e-13
12.4375	7.047929947989751e-13
12.46875	5.649488580942996e-13
12.5	4.849882973521902e-13
12.53125	4.5364338912938507e-13
12.5625	4.591132704047374e-13
12.59375	4.821663901477535e-13
12.625	5.011968487803053e-13
12.65625	5.051318521451242e-13
12.6875	4.984147317955989e-13
12.71875	4.99353271406211e-13
12.75	5.264457489731478e-13
12.78125	5.772304834637809e-13
12.8125	6.314405920880561e-13
12.84375	6.734341816833078e-13
12.875	6.972411471968532e-13
12.90625	7.032528314028508e-13
12.9375	7.026928951908706e-13
12.96875	7.12222923866801e-13
13.0	7.376701788470996e-13
13.03125	7.67150286438284e-13
13.0625	7.819403219540277e-13
13.09375	7.7429452823366e-13
13.125	7.539456797593658e-13
13.15625	7.389227576169721e-13
13.1875	7.420918805671473e-13
13.21875	7.647892193672623e-13
13.25	7.964602284984967e-13
13.28125	8.201313976899383e-13
13.3125	8.263910389327833e-13
13.34375	8.212702978620257e-13
13.375	8.17924070486975e-13
13.40625	8.278776427415868e-13
13.4375	8.708394248768681e-13
13.46875	1.0102331297889844e-12
13.5	1.4276103086144354e-12
13.53125	2.5202151563569197e-12
13.5625	4.892975781489728e-12
13.59375	9.11142342130411e-12
13.625	1.5320356094861154e-11
13.65625	2.3056157677503464e-11
13.6875	3.14902097453551e-11
13.71875	3.9919810512767384e-11
13.75	4.802290162753131e-11
13.78125	5.5694525380456383e-11
13.8125	6.280074377196243e-11
13.84375	6.915762407189163e-11
13.875	7.461373185968512e-11
13.90625	7.909003313377738e-11
13.9375	8.261432510314748e-11
13.96875	8.53194251360101e-11
14.0	8.737579410000862e-11
14.03125	8.882340002402955e-11
14.0625	8.935517603614329e-11
14.09375	8.8422311139702e-11
14.125	8.58353249588717e-11
14.15625	8.226906655917077e-11
14.1875	7.88137263785238e-11
14.21875	7.580626404379842e-11
14.25	7.245263416999492e-11
14.28125	6.773063360165921e-11
14.3125	6.108701045004494e-11
14.34375	5.2184916110586954e-11
14.375	4.0945101476008716e-11
14.40625	2.8411646299519866e-11
14.4375	1.691380369095441e-11
14.46875	8.602341929064838e-12
14.5	3.950755521342497e-12
14.53125	1.9368480343867622e-12
14.5625	1.2680443717619228e-12
14.59375	1.1381130413101737e-12
14.625	1.217347728697804e-12
14.65625	1.399816569082335e-12
14.6875	1.6425923121676789e-12
14.71875	1.915129079627098e-12
14.75	2.1867006903125707e-12
14.78125	2.423810284424288e-12
14.8125	2.6066462356644227e-12
14.84375	2.7474452834325147e-12
14.875	2.8762933874937335e-12
14.90625	3.008237105597833e-12
14.9375	3.139486717471107e-12
14.96875	3.2634402992448575e-12
15.0	3.370575520078578e-12
15.03125	3.445062811413546e-12
15.0625	3.4721346891392058e-12
15.09375	3.4453490407870824e-12
15.125	3.3722402040942123e-12
15.15625	3.2784549814507402e-12
15.1875	3.1957659175213537e-12
15.21875	3.129918850139357e-12
15.25	3.0547992520973954e-12
15.28125	2.9476659828275853e-12
15.3125	2.7944526033440997e-12
15.34375	2.56455338736028e-12
15.375	2.232949502384285e-12
15.40625	1.8302616366927538e-12
15.4375	1.4475577854444754e-12
15.46875	1.2020261088568907e-12
15.5	1.212153316089426e-12
15.53125	1.6044717637830885e-12
15.5625	2.5159486039677548e-12
15.59375	4.03808150112317e-12
15.625	6.1410390661542635e-12
15.65625	8.681010771338649e-12
15.6875	1.1485844393643863e-11
15.71875	1.4399255225672203e-11
15.75	1.7259509793587924e-11
15.78125	1.9903838993640122e-11
15.8125	2.2227169757527143e-11
15.84375	2.4228985137653147e-11
15.875	2.5971983244610364e-11
15.90625	2.749034506976944e-11
15.9375	2.875477807251503e-11
15.96875	2.970074533537037e-11
16.0	3.028256811976604e-11
16.03125	3.051361247008444e-11
16.0625	3.042151253129788e-11
16.09375	2.9960908753956517e-11
16.125	2.906944476799289e-11
16.15625	2.7888507475593016e-11
16.1875	2.6758322987929795e-11
16.21875	2.580481661684786e-11
16.25	2.4726914960027102e-11
16.28125	2.3129638829222365e-11
16.3125	2.0819297674723458e-11
16.34375	1.7724467726853987e-11
16.375	1.38808391864087e-11
16.40625	9.691128108335612e-12
16.4375	5.960870252258443e-12
16.46875	3.404262765779875e-12
16.5	2.191401357251599e-12
16.53125	2.1055711427880874e-12
16.5625	2.966347870461683e-12
16.59375	4.743101311016629e-12
16.625	7.399308596389709e-12
16.65625	1.0782181571189486e-11
16.6875	1.4638623646590077e-11
16.71875	1.8721581576675028e-11
16.75	2.2891976508843115e-11
16.78125	2.7046222900173333e-11
16.8125	3.0990345706305433e-11
16.84375	3.4527894432478945e-11
16.875	3.758134081710551e-11
16.90625	4.0143756374622086e-11
16.9375	4.224403118979758e-11
16.96875	4.391692218219667e-11
17.0	4.512110823862159e-11
17.03125	4.578690551704234e-11
17.0625	4.58664772828854e-11
17.09375	4.525776975405904e-11
17.125	4.392860034063695e-11
17.15625	4.2172803443873974e-11
17.1875	4.0430207792763184e-11
17.21875	3.880161469904664e-11
17.25	3.696873362990516e-11
17.28125	3.453970789935035e-11
17.3125	3.123840075502926e-11
17.34375	2.6841103992203408e-11
17.375	2.1311367601195563e-11
17.40625	1.5198167377383776e-11
17.4375	9.702681366685617e-12
17.46875	6.082148239910934e-12
17.5	5.0922582123247295e-12
17.53125	7.225986736053569e-12
17.5625	1.3208711902024106e-11
17.59375	2.382399312550465e-11
17.625	3.926388381092494e-11
17.65625	5.875155917323127e-11
17.6875	8.065870193973979e-11
17.71875	1.0311644593752334e-10
17.75	1.249643721834559e-10
17.78125	1.4600030906475325e-10
17.8125	1.6608837916098906e-10
17.84375	1.8460270811981871e-10
17.875	2.0091363295282605e-10
17.90625	2.1481368073228424e-10
17.9375	2.2640861407907664e-10
17.96875	2.3587320985285487e-10
18.0	2.4314486535281787e-10
18.03125	2.476818750096754e-10
18.0625	2.4852195301683366e-10
18.09375	2.4476479176804844e-10
18.125	2.367074314335582e-10
18.15625	2.2655638476365425e-10
18.1875	2.1687696083461105e-10
18.21875	2.0799610644939293e-10
18.25	1.9773381543242152e-10
18.28125	1.836428092927278e-10
18.3125	1.6455083129418568e-10
18.34375	1.4002862758211165e-10
18.375	1.101223487398606e-10
18.40625	7.706145443986401e-11
18.4375	4.625321653461967e-11
18.46875	2.340262532374293e-11
18.5	1.0374584004380072e-11
18.53125	4.8340663069690315e-12
18.5625	3.2821707591362825e-12
18.59375	3.400859021479574e-12
18.625	4.223102336581297e-12
18.65625	5.411146791062249e-12
18.6875	6.777748501329839e-12
18.71875	8.197845180468732e-12
18.75	9.631058103809487e-12
18.78125	1.107657715548882e-11
18.8125	1.2500755638966687e-11
18.84375	1.3833235772142682e-11
18.875	1.5048727888822278e-11
18.90625	1.6217811815710803e-11
18.9375	1.741705217550571e-11
18.96875	1.861038406714144e-11
19.0	1.9690549538098345e-11
19.03125	2.0620944188309842e-11
19.0625	2.146827160487419e-11
19.09375	2.232714881034159e-11
19.125	2.3289571660090047e-11
19.15625	2.4474569940147184e-11
19.1875	2.6009366535517664e-11
19.21875	2.7970495711238108e-11
19.25	3.0419694541095055e-11
19.28125	3.347999655289868e-11
19.3125	3.733267514571814e-11
19.34375	4.228229572023068e-11
19.375	4.909270559516621e-11
19.40625	6.0053531591997e-11
19.4375	8.271869300635615e-11
19.46875	1.400484311853134e-10
19.5	2.8586863431989684e-10
19.53125	6.084573955789097e-10
19.5625	1.2014501615809081e-09
19.59375	2.1163890639996907e-09
19.625	3.340987042577126e-09
19.65625	4.820890353585128e-09
19.6875	6.505137761791957e-09
19.71875	8.373875814982057e-09
19.75	1.0394650473699585e-08
19.78125	1.244131908606505e-08
19.8125	1.4320892027797072e-08
19.84375	1.5909348505260823e-08
19.875	1.720743902922095e-08
19.90625	1.827135598375662e-08
19.9375	1.9145049989788276e-08
19.96875	1.9841051468461046e-08
20.0	2.033264756562403e-08
20.03125	2.0556131019588975e-08
20.0625	2.0438635672803684e-08
20.09375	1.9953834140551407e-08
20.125	1.9194793310362e-08
20.15625	1.8370949206314435e-08
20.1875	1.763731560799897e-08
20.21875	1.6914952993829502e-08
20.25	1.5964781496791147e-08
20.28125	1.461577792127855e-08
20.3125	1.281207939740625e-08
20.34375	1.0506751912942036e-08
20.375	7.744533903064621e-09
20.40625	4.893726313071056e-09
20.4375	2.5487074672980725e-09
20.46875	1.0716826315260164e-09
20.5	3.6634176248107053e-10
20.53125	1.0736841971059619e-10
20.5625	3.080306495983898e-11
20.59375	1.0524901263020414e-11
20.625	4.746355652257561e-12
20.65625	2.6822029840223305e-12
20.6875	1.7576809148781014e-12
20.71875	1.2719403438485322e-12
20.75	9.943093440614725e-13
20.78125	8.291393288097082e-13
20.8125	7.234923922981584e-13
20.84375	6.457597586002894e-13
20.875	5.814043365671984e-13
20.90625	5.300215019481136e-13
20.9375	4.953117451779454e-13
20.96875	4.747585245941377e-13
21.0	4.596861628326787e-13
21.03125	4.422454698456424e-13
21.0625	4.228271920959925e-13
21.09375	4.1062514716597165e-13
21.125	4.122172980562666e-13
21.15625	4.2303722916185726e-13
21.1875	4.3699972026439715e-13
21.21875	4.554826567998438e-13
21.25	4.766492105526265e-13
21.28125	4.885797170485484e-13
21.3125	4.871120867777634e-13
21.34375	4.879240457847378e-13
21.375	5.041552028281493e-13
21.40625	5.228129669639092e-13
21.4375	5.205801067997839e-13
21.46875	4.952162811766581e-13
21.5	4.653885241588662e-13
21.53125	4.4657859224819796e-13
21.5625	4.413406218175403e-13
21.59375	4.470808760096562e-13
21.625	4.604426648985305e-13
21.65625	4.75992238246209e-13
21.6875	4.929052500358966e-13
21.71875	5.206776849953076e-13
21.75	5.625328219731329e-13
21.78125	6.015337425217815e-13
21.8125	6.217952043009733e-13
21.84375	6.308582128911056e-13
